# Bell (1980) - row 1 = Theta (5040/T) - col 1 = Angstrom - cols Table (10^-26 scaled units: cm4 dyne-1)
0.5 0.8 1.0 1.2 1.6 2.0 2.8 3.6
3505 4.17e-2 6.10e-2 7.34e-2 8.59e-2 1.11e-1 1.37e-1 1.87e-1 2.40e-1
4142 5.84e-2 8.43e02 1.01e-1 1.17e-1 1.49e-1 1.82e-1 2.49e-1 3.16e-1
5063 8.70e-2 1.24e-1 1.46e-1 1.67e-1 2.10e-1 2.53e-1 3.39e-1 4.27e-1
5696 1.10e-1 1.54e-1 1.80e-1 2.06e-1 2.55e-1 3.05e-1 4.06e-1 5.07e-1
6509 1.43e-1 1.98e-1 2.30e-1 2.59e-1 3.17e-1 3.75e-1 4.92e-1 6.09e-1
7594 1.92e-1 2.64e-1 3.03e-1 3.39e-1 4.08e-1 4.76e-1 6.13e-1 7.51e-1
9113 2.73e-1 3.71e-1 4.22e-1 4.67e-1 5.52e-1 6.33e-1 7.97e-1 9.63e-1
11391 4.20e-1 5.64e-1 6.35e-1 6.97e-1 8.06e-1 9.09e-1 1.11 1.32
15188 7.36e-1 9.75e-1 1.09 1.18 1.34 1.48 1.74 2.01
18226 1.05 1.39 1.54 1.66 1.87 2.04 2.36 2.68
22783 1.63 2.14 2.36 2.55 2.84 3.07 3.49 3.90
30377 2.89 3.76 4.14 4.44 4.91 5.28 5.90 6.44
36452 4.15 5.38 5.92 6.35 6.99 7.50 8.32 9.02
45565 6.47 8.37 9.20 9.84 1.08e1 1.16e1 1.28e1 1.38e1
60753 1.15e1 1.48e1 1.63e1 1.74e1 1.91e1 2.04e1 2.24e1 2.40e1
91130 2.58e1 3.33e1 3.65e1 3.90e1 4.27e1 4.54e1 4.98e1 5.33e1
113913 4.03e1 5.20e1 5.70e1 6.08e1 6.65e1 7.08e1 7.76e1 8.30e1
151883 7.16e1 9.23e1 1.01e2 1.08e2 1.18e2 1.26e2 1.38e2 1.47e2
